# lg(E/eV)   J [km-2 sr-1 yr-1 eV-1]   J lower  J upper  (68% stat. uncert.)
16.55  1.9699e-12  1.9506e-12  1.9893e-12
16.65  1.0174e-12  1.0071e-12  1.0278e-12
16.75  5.3397e-13  5.2809e-13  5.3991e-13
16.85  2.7029e-13  2.6707e-13  2.7354e-13
16.95  1.3848e-13  1.3667e-13  1.4032e-13
17.05  7.0925e-14  7.0778e-14  7.1072e-14
17.15  3.5490e-14  3.5396e-14  3.5583e-14
17.25  1.7188e-14  1.7129e-14  1.7246e-14
17.35  8.2087e-15  8.1727e-15  8.2446e-15
17.45  3.8799e-15  3.8577e-15  3.9020e-15
17.55  1.8235e-15  1.8099e-15  1.8371e-15
17.65  8.5532e-16  8.4700e-16  8.6364e-16
17.75  3.9451e-16  3.8946e-16  3.9956e-16
17.85  1.8417e-16  1.8108e-16  1.8726e-16
17.95  8.6057e-17  8.4167e-17  8.7947e-17
18.05  3.9114e-17  3.8234e-17  3.9995e-17
18.15  1.8508e-17  1.8044e-17  1.8972e-17
18.25  9.0432e-18  8.8042e-18  9.2822e-18
18.35  4.0665e-18  3.9516e-18  4.1815e-18
18.45  1.9314e-18  1.9248e-18  1.9380e-18
18.55  9.0405e-19  8.9995e-19  9.0815e-19
18.65  4.3232e-19  4.3009e-19  4.3454e-19
18.75  2.1909e-19  2.1767e-19  2.2051e-19
18.85  1.2170e-19  1.2074e-19  1.2265e-19
18.95  6.8495e-20  6.7854e-20  6.9137e-20
19.05  3.7790e-20  3.7364e-20  3.8215e-20
19.15  2.0617e-20  2.0337e-20  2.0897e-20
19.25  1.0350e-20  1.0173e-20  1.0527e-20
19.35  5.3024e-21  5.1892e-21  5.4157e-21
19.45  2.5720e-21  2.5014e-21  2.6426e-21
19.55  1.2975e-21  1.2525e-21  1.3425e-21
19.65  5.8195e-22  5.5478e-22  6.0913e-22
19.75  2.0190e-22  1.8753e-22  2.1627e-22
19.85  7.1988e-23  6.4306e-23  7.9669e-23
19.95  1.3062e-23  9.9255e-24  1.6199e-23
20.05  4.5748e-24  2.8066e-24  6.3429e-24
20.15  2.9294e-24  1.7721e-24  4.6702e-24
